Force(N),Elongation(mm)
0.46808663,0.0
1.0030428,0.0008125789
1.6048687,0.0015744007
2.1398246,0.0023362227
2.674781,0.0032505484
3.2766066,0.0040631276
3.8784323,0.0047234353
4.2796493,0.0053835097
4.8146057,0.0061453315
5.2158227,0.0069579105
5.8176484,0.007922994
6.486344,0.008837087
6.887561,0.009548152
7.288778,0.010259216
7.6899953,0.011071795
8.158082,0.012036645
8.826777,0.013103242
9.294864,0.013966578
9.696081,0.014677643
10.097298,0.015439465
10.498515,0.016303034
11.033472,0.017267885
11.568427,0.018385239
12.103383,0.019248575
12.5046015,0.02011191
12.905818,0.020924488
13.307035,0.021838814
13.708252,0.022752907
14.109469,0.023565486
14.310079,0.024225794
14.577556,0.024886101
14.845034,0.025597166
15.179381,0.026358988
15.580599,0.027374595
16.048685,0.028288921
16.316164,0.029152257
16.583641,0.029863322
16.65051,0.030421883
16.91799,0.031031433
17.185467,0.031844012
17.519814,0.032808863
17.921032,0.033773948
18.188509,0.034637284
18.389118,0.035246834
18.522858,0.035906907
18.857204,0.036821235
19.124683,0.037836842
19.5259,0.038903438
19.793377,0.039716017
19.927118,0.040376324
19.993988,0.041138146
20.261465,0.042102996
20.528942,0.04316959
20.93016,0.044083685
21.0639,0.0448965
21.264507,0.045759834
21.598856,0.046673927
21.866333,0.04758825
22.133812,0.048502345
22.267551,0.049264167
22.334421,0.049924474
22.535028,0.050686296
22.668768,0.051498875
22.869377,0.052260697
23.136854,0.053124033
23.337463,0.05393661
23.538073,0.05474919
23.73868,0.055612527
23.93929,0.05632359
24.139896,0.057034656
24.273638,0.05774572
24.474245,0.0585583
24.607985,0.059320122
24.942331,0.060284972
25.20981,0.06109755
25.343548,0.061808616
25.477287,0.0626212
25.677898,0.063434005
25.945375,0.064398855
26.34659,0.06546546
26.480331,0.066328794
26.680939,0.06714137
26.814678,0.06795395
26.948418,0.06876653
27.282766,0.06978237
27.483374,0.07074722
27.75085,0.071610786
27.884592,0.07242337
28.01833,0.073235944
28.285807,0.07415004
28.486416,0.07506436
28.620157,0.07582618
28.687025,0.076638766
28.887634,0.07734983
28.887634,0.0780099
29.021372,0.07882248
29.288853,0.07968605
29.42259,0.08060014
29.756937,0.081412725
29.756937,0.082123786
29.823807,0.08268235
29.957544,0.08344417
30.158155,0.0843585
30.492502,0.08532335
30.62624,0.086186685
30.759981,0.086897746
30.82685,0.08745654
30.89372,0.08821836
31.094328,0.08918321
31.428675,0.09019905
31.696154,0.09121466
31.89676,0.09197648
31.89676,0.09268755
32.09737,0.093601875
32.29798,0.094515964
32.565456,0.09553181
32.832935,0.09639514
32.832935,0.09725848
33.100414,0.09822356
33.234154,0.09918841
33.43476,0.10010251
33.5685,0.10091531
33.635372,0.10162615
33.70224,0.10243896
33.83598,0.10325154
33.96972,0.10401336
34.036587,0.10477518
34.103455,0.105537005
34.237194,0.10629883
34.370934,0.10716216
34.571545,0.1080255
34.70528,0.10868581
34.70528,0.10934588
34.772152,0.110056944
34.90589,0.11092028
35.1065,0.11183461
35.440845,0.11279946
35.507717,0.11356128
35.574585,0.11427234
35.641453,0.115084924
35.842064,0.116050005
36.17641,0.1171166
36.377018,0.11792918
36.44389,0.118691005
36.44389,0.119401835
36.57763,0.1202654
36.845108,0.121331766
37.112583,0.12234761
37.246326,0.123210944
37.380062,0.12412527
37.5138,0.12498861
37.78128,0.12595345
37.84815,0.12686779
37.981888,0.12762961
37.981888,0.12834066
37.981888,0.12900074
38.04876,0.12966105
38.115627,0.13042288
38.316235,0.13138773
38.583714,0.13230205
38.65058,0.13311462
38.784325,0.13387644
38.717453,0.13443501
38.784325,0.13504456
38.851192,0.1359079
39.11867,0.13677123
39.386147,0.13778707
39.45302,0.1386504
39.519886,0.13925996
39.519886,0.13992026
39.653625,0.14088511
39.92111,0.1418502
40.054844,0.1428658
40.188583,0.14367838
40.054844,0.1443387
40.054844,0.14515127
40.188583,0.14611636
40.322323,0.14713196
40.25545,0.14809705
40.054844,0.14890963
39.987976,0.14977296
40.188583,0.15073805
40.25545,0.1517029
40.322323,0.15256622
40.188583,0.15332805
40.188583,0.15398836
40.25545,0.15475018
40.322323,0.15556276
40.322323,0.15632458
40.38919,0.15713716
40.38919,0.15794975
40.322323,0.15871157
40.456062,0.15952414
40.52293,0.16033672
40.456062,0.16104779
40.456062,0.16175885
40.589798,0.16257143
40.65667,0.163384
40.723537,0.16429833
40.65667,0.16511092
40.52293,0.165771
40.589798,0.16658379
40.723537,0.16739638
40.79041,0.16836123
40.723537,0.16947858
40.65667,0.17029116
40.65667,0.1711545
40.589798,0.17196707
40.723537,0.17283064
40.857277,0.17384624
40.857277,0.17486209
40.79041,0.17572543
40.857277,0.17648725
40.924145,0.17735058
40.857277,0.17821415
40.79041,0.17912824
40.79041,0.17989007
40.79041,0.18070264
40.79041,0.18136296
40.723537,0.18202326
40.924145,0.18283585
40.991016,0.18369918
40.857277,0.18461327
40.924145,0.1854766
40.857277,0.18618767
40.79041,0.18679722
40.924145,0.18755904
41.057884,0.18847314
40.991016,0.18938747
40.924145,0.19030155
40.924145,0.19096187
40.924145,0.19152042
40.991016,0.19228224
41.124756,0.19314559
41.124756,0.19426294
40.924145,0.19527878
40.924145,0.1960406
40.991016,0.19680242
41.191624,0.19771652
41.191624,0.1986816
41.057884,0.19974796
41.057884,0.20056078
41.057884,0.2014241
41.191624,0.2023382
41.124756,0.2032523
41.191624,0.20411587
41.191624,0.20492844
41.124756,0.20558874
41.124756,0.20640133
41.2585,0.20721391
41.191624,0.20802648
41.057884,0.20873755
40.991016,0.20955013
41.191624,0.21031195
41.2585,0.21122605
41.057884,0.21208937
41.057884,0.21269894
41.057884,0.21335924
41.191624,0.21412106
41.2585,0.21488288
41.2585,0.21594925
41.325367,0.21686357
41.191624,0.2176254
41.325367,0.21833646
41.392235,0.21914904
41.459106,0.22006314
41.392235,0.22118048
41.2585,0.22204383
41.2585,0.22280565
41.392235,0.22356747
41.392235,0.22438005
41.459106,0.22544664
41.191624,0.22646248
41.325367,0.22727506
41.392235,0.22818916
41.392235,0.22900173
41.392235,0.22996682
41.392235,0.23088092
41.392235,0.23164274
41.325367,0.23235379
41.392235,0.23306486
41.459106,0.23372494
41.392235,0.2345885
41.392235,0.23555335
41.392235,0.23641668
41.459106,0.23728026
41.459106,0.23794033
41.325367,0.23844837
41.392235,0.23910844
41.459106,0.23997201
41.592842,0.2408861
41.525974,0.24185096
41.392235,0.24266377
41.392235,0.24332385
41.525974,0.2440349
41.592842,0.24499999
41.592842,0.24606636
41.459106,0.24703144
41.459106,0.24784401
41.392235,0.24850433
41.459106,0.24936765
41.592842,0.2503325
41.525974,0.25134835
41.325367,0.25226244
41.325367,0.25302428
41.459106,0.25388783
41.72658,0.25485268
41.459106,0.25576678
41.525974,0.2566811
41.459106,0.25739217
41.592842,0.258103
41.72658,0.2589158
41.659714,0.25967765
41.72658,0.2604902
41.72658,0.26135355
41.793453,0.26211536
41.92719,0.2628772
41.99406,0.26374054
41.99406,0.2644516
41.86032,0.2651119
41.92719,0.26587373
41.99406,0.26663554
42.1278,0.26744813
42.261536,0.26841298
42.06093,0.26922557
42.1278,0.26998737
42.395275,0.2707492
42.595882,0.27161252
42.662754,0.27267936
42.930233,0.27369496
43.130844,0.27450755
43.39832,0.2753201
43.53206,0.27608195
43.732666,0.27689454
43.933273,0.2779609
44.000145,0.27887544
44.067013,0.27978954
44.200756,0.28060213
44.468235,0.28146547
44.468235,0.28237954
44.401363,0.28329363
44.535103,0.28405547
44.60197,0.28481728
44.802578,0.28552836
44.668842,0.2861379
44.73571,0.28695047
44.936317,0.28786457
44.936317,0.28867716
45.00319,0.28959125
45.00319,0.29025155
45.00319,0.29081035
45.136925,0.29157218
45.404404,0.29253703
45.538143,0.2934511
45.538143,0.29431492
45.47127,0.29502597
45.538143,0.29563507
45.671886,0.29639688
46.006233,0.2973622
46.20684,0.29842857
46.27371,0.29939342
46.13997,0.30015525
46.20684,0.3008663
46.608055,0.30183116
46.741795,0.30279648
46.674927,0.30376133
46.674927,0.30462465
46.741795,0.305488
47.076145,0.3065036
47.076145,0.30741817
47.209885,0.30828148
47.143013,0.30904332
47.143013,0.30975437
47.343624,0.31056696
47.54423,0.31137955
47.54423,0.31214136
47.47736,0.3128524
47.47736,0.313665
47.67797,0.31437606
47.811707,0.31529015
47.87858,0.3161535
47.811707,0.3168138
47.74484,0.31752488
47.945446,0.3182867
48.012318,0.31904852
48.146053,0.32011488
48.212925,0.32102898
48.012318,0.32168928
48.146053,0.32240033
48.279793,0.32321292
48.480404,0.32417777
48.681015,0.3252446
48.480404,0.32610795
48.279793,0.32676825
48.413532,0.32758084
48.614143,0.32844415
48.81475,0.32951054
48.681015,0.33052614
48.614143,0.3314407
48.614143,0.33230403
48.81475,0.33311662
48.94849,0.3340307
48.94849,0.33494478
48.881622,0.33570662
48.881622,0.33636692
48.94849,0.33707798
49.08223,0.3377383
49.149097,0.33855087
49.282837,0.33956647
49.149097,0.34048057
49.21597,0.34129316
49.282837,0.3420042
49.282837,0.342563
49.21597,0.34322333
49.34971,0.3440359
49.550316,0.34500074
49.68405,0.3459656
49.617184,0.34672743
49.550316,0.34733698
49.483444,0.34799728
49.750923,0.34896213
49.951534,0.3499782
49.951534,0.35104457
49.81779,0.3518064
49.81779,0.35251746
50.018406,0.3533808
50.219013,0.35434565
50.41962,0.3553617
50.687096,0.35632655
50.820835,0.3570884
51.15518,0.35790095
51.489532,0.3588658
51.82388,0.35983065
52.158226,0.36069447
52.358833,0.36140507
52.425705,0.36206537
52.626312,0.36287794
52.826923,0.36363977
53.094402,0.36445236
53.29501,0.36531615
53.42875,0.3660775
53.629356,0.36683932
53.829964,0.36780465
54.097443,0.3685157
54.097443,0.36917603
54.23118,0.36993736
54.431793,0.3706992
54.49866,0.37151223
54.76614,0.37247708
54.966747,0.37323892
54.966747,0.37394997
55.100487,0.37476256
55.301094,0.37562588
55.56857,0.3766415
55.836052,0.37765712
56.03666,0.3785209
56.10353,0.3793335
56.23727,0.38014606
56.371006,0.3810094
56.571613,0.382025
56.772224,0.38298985
56.90596,0.38380244
56.90596,0.384615
57.0397,0.38542807
57.173443,0.38634217
57.307182,0.38725623
57.50779,0.38806883
57.44092,0.38883066
57.50779,0.38954172
57.44092,0.39020202
57.50779,0.39106536
57.708397,0.3919287
57.842136,0.39279202
57.975876,0.39365536
58.042744,0.3942649
57.975876,0.3948237
57.975876,0.39558554
58.176483,0.3965504
58.443962,0.39746448
58.577705,0.39837858
58.577705,0.39908963
58.51083,0.39964843
58.577705,0.40046102
58.84518,0.40147662
59.11266,0.40254346
59.313267,0.40345752
59.313267,0.4041686
59.313267,0.4049304
59.447006,0.4058445
59.647614,0.40680936
59.781353,0.40782544
59.98196,0.40863803
59.98196,0.4095521
60.24944,0.41051695
60.38318,0.41143104
60.45005,0.41234514
60.583786,0.41310698
60.45005,0.41381803
60.51692,0.41463062
60.650658,0.41544318
60.650658,0.41615427
60.650658,0.41691607
60.650658,0.4176779
60.784397,0.41849047
60.918133,0.41940504
61.051872,0.4202176
61.11874,0.42087746
61.051872,0.42153776
61.11874,0.42235035
61.25248,0.4232137
61.453087,0.42422974
61.72057,0.42509308
61.6537,0.42575338
61.72057,0.42651522
61.78744,0.4273278
61.98805,0.42829266
62.322395,0.42935902
62.389263,0.43017158
62.45613,0.43088266
62.45613,0.43169522
62.58987,0.43255904
62.790478,0.4336254
62.991093,0.434641
63.1917,0.4354536
63.32544,0.4363677
63.32544,0.43718073
63.526047,0.43814558
63.659786,0.43905967
63.659786,0.43982148
63.659786,0.44043103
63.592915,0.4411421
63.592915,0.4418024
63.659786,0.442615
63.92726,0.44357985
63.994133,0.44449392
64.12787,0.4453065
64.19474,0.4459668
64.061,0.44657636
64.061,0.4472367
64.19474,0.4481
64.46222,0.44911563
64.66283,0.45008048
64.7297,0.45089304
64.79657,0.45145184
64.79657,0.45221367
64.930305,0.45317852
65.264656,0.45419458
65.39839,0.45515943
65.53213,0.4558705
65.46526,0.45658156
65.46526,0.4574449
65.66587,0.4584605
65.86648,0.45952687
66.00022,0.46044144
66.00022,0.46120325
66.06709,0.46211734
66.334564,0.4630822
66.46831,0.4639963
66.668915,0.46480888
66.668915,0.46546918
66.60204,0.46618024
66.73578,0.46694207
66.73578,0.46775463
66.80265,0.46856722
67.00326,0.46943057
67.07013,0.47019237
67.07013,0.4709542
67.270744,0.4718683
67.40448,0.47257936
67.40448,0.4732904
67.47135,0.47405225
67.60509,0.47481406
67.67196,0.47562665
67.93944,0.47654074
68.140045,0.47735378
68.140045,0.4780644
68.27378,0.47887743
68.40752,0.47974077
68.674995,0.48075637
68.87561,0.48177198
68.94248,0.4825338
68.94248,0.48339713
68.80874,0.48420972
68.94248,0.4851243
69.20995,0.48619065
69.47743,0.487054
69.67804,0.48796806
69.74491,0.4887299
69.87865,0.48959324
70.01239,0.49055853
70.213,0.49142188
70.34674,0.49213293
70.34674,0.49289477
70.413605,0.49355462
70.34674,0.49421492
70.413605,0.49507827
70.68108,0.4959928
70.88169,0.4969069
71.015434,0.4977195
70.94856,0.4983798
70.81483,0.49898934
70.88169,0.49975115
71.015434,0.50071603
71.282906,0.50157934
71.48352,0.50244266
71.550385,0.503103
71.550385,0.50371253
71.61726,0.50447434
71.95161,0.5054392
72.219086,0.5065056
72.486565,0.5075216
72.6203,0.50823224
72.68717,0.5090453
72.88778,0.5099594
73.021515,0.5109242
73.288994,0.5118891
73.42274,0.5127524
73.48961,0.5136158
73.75708,0.5145811
73.89082,0.5154952
74.02456,0.5163585
74.1583,0.5171203
74.09143,0.5178314
74.1583,0.518644
74.35891,0.5195073
74.42577,0.5202184
74.49265,0.5209802
74.55952,0.52179277
74.69326,0.52250385
74.826996,0.5234687
74.96073,0.52428126
74.96073,0.52489084
74.96073,0.52555114
75.094475,0.52636373
75.16135,0.52722704
75.49569,0.52819186
75.76317,0.52910644
75.83003,0.52981704
75.896904,0.53057885
76.03065,0.53144264
76.231255,0.5324075
76.565605,0.5334739
76.69934,0.5342357
76.69934,0.5349975
76.76621,0.5357086
76.89995,0.5366227
77.16743,0.5377403
77.368034,0.5387051
77.56865,0.5395685
77.702385,0.5404318
77.83613,0.5412444
77.969864,0.5422092
78.17047,0.54317456
78.30421,0.5438856
78.23734,0.5445967
78.30421,0.5452565
78.30421,0.5459168
78.37108,0.54678017
78.571686,0.54774547
78.77229,0.5486088
78.9729,0.54947215
79.03977,0.55013245
78.839165,0.55064005
78.90604,0.55130035
79.03977,0.55221444
79.30725,0.55317974
79.57474,0.55409384
79.70847,0.5549064
79.70847,0.55551594
79.775345,0.5562778
79.97595,0.55724263
80.24343,0.558309
80.5109,0.5592743
80.71152,0.55993414
80.577774,0.5606452
80.77838,0.5615598
80.97899,0.5624739
81.24647,0.5635402
81.58082,0.5644543
81.58082,0.5652669
81.714554,0.5661302
81.98203,0.5671463
82.18264,0.5681112
82.316376,0.5689238
82.316376,0.5695841
82.316376,0.5702951
82.38325,0.5711077
82.517,0.5718695
82.58386,0.5726821
82.717606,0.5734947
82.85134,0.5742565
82.91821,0.57501835
83.05195,0.57588166
83.185684,0.57659274
83.185684,0.57730377
83.252556,0.57806563
83.3863,0.57882744
83.45316,0.57964003
83.78751,0.58060485
83.92125,0.58136666
83.98812,0.5821285
84.12186,0.58294106
84.2556,0.5838044
84.52307,0.58487123
84.79055,0.5857853
84.99116,0.5865979
84.99116,0.5874105
85.05803,0.5882231
85.191765,0.5890864
85.52612,0.590102
85.72673,0.5910673
85.92734,0.5918799
85.99421,0.5927433
86.26169,0.5936066
86.395424,0.5945714
86.52916,0.5954348
86.59603,0.5961966
86.52916,0.5969584
86.6629,0.5976187
86.52916,0.5982283
86.6629,0.5991424
86.86351,0.6000057
87.06412,0.6009198
87.3316,0.60173285
87.19785,0.6023927
87.3316,0.60295147
87.39846,0.60376406
87.66594,0.6047289
87.93342,0.60564345
88.067154,0.6065068
88.067154,0.6071671
87.93342,0.60767466
88.00029,0.60848725
88.134026,0.60945255
88.53525,0.6104682
88.735855,0.6114838
89.003334,0.6122456
89.003334,0.6130074
89.27081,0.6139723
89.47142,0.6149376
89.67203,0.6159024
90.00638,0.6168165
90.07324,0.6176799
90.474464,0.6186447
90.54133,0.6195593
90.741936,0.6204226
90.741936,0.6211337
90.741936,0.62184477
90.87568,0.62265736
91.009415,0.6235207
91.143166,0.6242825
91.07629,0.62509507
91.41064,0.6258569
91.41064,0.6266187
91.54438,0.62748206
91.678116,0.62829465
91.74499,0.62895495
91.74499,0.629666
91.945595,0.63042784
92.1462,0.6312404
92.27994,0.63230675
92.68116,0.6331701
92.54742,0.6338304
92.68116,0.63454145
92.814896,0.6354048
93.0155,0.6364204
93.41672,0.63748723
93.55046,0.6382998
93.6842,0.6390616
93.6842,0.6398235
93.8848,0.64073753
94.15229,0.6418547
94.41977,0.6427692
94.62038,0.6436326
94.820984,0.6444959
94.820984,0.6453085
95.02159,0.6462226
95.2222,0.6471367
95.28907,0.6478478
95.35594,0.6485588
95.2222,0.6492699
95.35594,0.6499302
95.28907,0.6507935
95.690285,0.6517584
95.89089,0.65267247
96.024635,0.6534855
96.15837,0.65414536
95.95776,0.6546534
96.0915,0.6553137
96.15837,0.65617704
96.492714,0.65714186
96.69332,0.65810674
96.96081,0.65891975
96.96081,0.6594781
96.96081,0.66023993
97.16142,0.661256
97.428894,0.66222084
97.69637,0.6632872
97.83011,0.66399825
97.96385,0.6647093
97.96385,0.6655727
98.298195,0.6665375
98.565674,0.6676043
98.83315,0.6684677
98.96689,0.6692803
99.03376,0.6701944
99.30124,0.6711592
99.50185,0.672023
99.769325,0.6729371
99.70245,0.6735974
99.769325,0.674308
99.836205,0.67512107
99.96994,0.67593366
100.103676,0.6767462
100.23742,0.67760956
100.43803,0.67837137
100.50489,0.67918396
100.705505,0.67999655
100.77237,0.68065685
100.83924,0.68131715
100.83924,0.68207896
100.97298,0.68284076
101.03985,0.68370414
101.37419,0.68466896
101.57481,0.6854308
101.64167,0.68619263
101.84228,0.6870052
101.84228,0.68781775
102.24349,0.68888414
102.51097,0.6899002
102.71159,0.690662
102.84533,0.6915254
102.979065,0.69233793
103.17967,0.693252
103.44715,0.69426763
103.71463,0.6951817
103.91524,0.6960455
104.04897,0.6968074
104.115845,0.6976707
104.31645,0.6986356
104.58393,0.6994989
104.71767,0.7002607
104.78454,0.7010225
104.78454,0.7016321
104.78454,0.70234317
104.85141,0.7032065
105.18575,0.7040698
105.319496,0.70493317
105.5201,0.7057965
105.58698,0.70640606
105.5201,0.70696485
105.58698,0.70777744
105.78759,0.70869154
106.188805,0.7096056
106.32254,0.71046895
106.45628,0.71112925
106.38941,0.71168804
106.38941,0.71250063
106.65689,0.71346545
107.058105,0.7145323
107.39245,0.7155479
107.593056,0.71625894
107.65993,0.71707153
107.79367,0.71798563
108.12801,0.7188997
108.39549,0.7199666
108.66298,0.7208299
108.72984,0.721744
108.99732,0.7227088
109.33167,0.7236229
109.39854,0.7244863
109.599144,0.7252481
109.599144,0.7259592
109.73289,0.7267717
109.86662,0.7275843
109.933495,0.7282446
110.06723,0.7290572
110.1341,0.7297683
110.26784,0.7305301
110.40158,0.7314442
110.66906,0.732308
110.73592,0.73296785
110.73592,0.73362815
110.86967,0.73438996
111.0034,0.73530406
111.33775,0.73632014
111.60524,0.73718345
111.672104,0.73784375
111.80585,0.7386056
111.87271,0.73946893
112.07332,0.74043375
112.47454,0.74144936
112.67515,0.74226195
112.80888,0.74292225
112.80888,0.74373484
113.00949,0.7445982
113.34384,0.7457158
113.745056,0.7467314
113.94566,0.7476455
114.14627,0.7485093
114.346886,0.7494234
114.54749,0.7503375
114.7481,0.7512516
114.81497,0.7519119
114.88184,0.7526229
114.88184,0.7532832
114.81497,0.7538923
114.94871,0.75470537
115.21619,0.755721
115.55054,0.75663507
115.6174,0.75744766
115.751144,0.75810796
115.751144,0.75866675
115.751144,0.75932705
115.95175,0.7602919
116.21923,0.76125675
116.55357,0.7622216
116.68731,0.76298344
116.82105,0.76354223
116.75418,0.76430404
117.02166,0.76526886
117.28915,0.76628494
117.556625,0.76730055
117.8241,0.76796085
117.75723,0.76867193
117.89097,0.7695353
118.15845,0.7705509
118.49279,0.7715665
118.76027,0.772481
118.89401,0.7732936
119.09462,0.7742585
119.36209,0.7752233
119.562706,0.7761882
119.83018,0.7770008
119.83018,0.7776611
119.83018,0.7783721
120.030785,0.7791847
120.030785,0.7799465
120.164536,0.7807084
120.29827,0.7815717
120.49888,0.78228277
120.63262,0.7831461
120.76636,0.7840094
120.966965,0.7847205
120.966965,0.7853808
121.10071,0.78614265
121.16757,0.7869552
121.301315,0.78781855
121.63566,0.78873307
121.836266,0.78949493
121.90314,0.79025674
121.97001,0.79101855
122.23748,0.7918819
122.50496,0.79294825
122.77244,0.79386234
123.039925,0.79467493
123.17366,0.7954875
123.3074,0.7963001
123.44114,0.7972146
123.77549,0.798281
124.10983,0.79924583
124.37731,0.8000584
124.37731,0.8009218
124.57792,0.8017343
124.64479,0.8026997
124.97913,0.8035123
125.11288,0.8042741
125.11288,0.8050359
125.17974,0.8056962
125.17974,0.8063053
125.313484,0.8071686
125.580956,0.80813396
125.7147,0.80904806
125.982185,0.8098606
125.982185,0.81047016
126.04905,0.81107926
126.11592,0.8118923
126.31653,0.81280637
126.58401,0.81372046
126.85149,0.81453305
126.91835,0.81514263
126.85149,0.81565017
126.85149,0.816412
