Force(N),Elongation(mm)
0.67808156,-3.054738e-06
1.4615925,0.0021552443
2.2698999,0.004686296
2.5705019,0.0071774423
3.151541,0.0096909106
3.5731532,0.01218456
3.8485711,0.014664173
4.0829503,0.01717034
4.451292,0.019678444
4.7524024,0.02217409
4.8993453,0.024679601
5.1080257,0.027183428
5.3183458,0.029690415
5.6002763,0.0321958959999999
5.73523,0.034688801
6.00037,0.037188023
6.3896083,0.039671734
6.528319,0.0421668439999999
6.7258127,0.04464896
6.7643021,0.047161862
7.0159526,0.0496733929999999
7.3652128,0.052190587
7.6314773,0.0546837899999999
7.8809819,0.057196841
7.9358697,0.0596852
8.2557891,0.062180012
8.4689834,0.064664081
8.5714547,0.067163229
8.8400784,0.069666564
9.087313,0.0721685889999999
9.3533878,0.074687064
9.6383397,0.077195629
9.7463092,0.079704076
10.13389,0.082197815
10.209003,0.0846738069999999
10.429489,0.087182209
10.532251,0.089673862
10.823488,0.092162356
11.188145,0.0946729479999999
11.321623,0.097175598
11.492318,0.099689856
11.799791,0.10220042
12.02366,0.1046923999999999
12.389172,0.10719053
12.617505,0.1096757499999999
13.053538,0.1121642
13.345641,0.11466335
13.905326,0.1171644499999999
14.261176,0.1196705399999999
14.819775,0.1221779399999999
15.194082,0.12469436
15.64946,0.12718321
16.032459,0.12968619
16.306938,0.13217989
16.911611,0.13466856
17.356348,0.13714842
17.776501,0.13965563
18.04959,0.14217319
18.576043,0.14466608
19.156499,0.14718881
19.447962,0.14968733
19.92172,0.15218838
20.272893,0.15468496
20.727066,0.15717924
21.289815,0.15966344
21.720999,0.16216874
22.036852,0.16467313
22.560513,0.16718365
23.110152,0.16968702
23.477246,0.17218527
23.830285,0.17469588
24.278402,0.17719464
24.611241,0.1796835199999999
25.089925,0.18217266
25.506127,0.18466625
25.980878,0.18715066
26.579825,0.1896616099999999
26.671525,0.19217075
27.251879,0.1946808
27.793053,0.197179
28.049314,0.19968557
28.43492,0.20217898
29.186413,0.2046821599999999
29.72056,0.20717528
29.963971,0.20966551
30.431148,0.21216904
30.722096,0.21466798
31.255374,0.21717997
31.48149,0.2196866
32.055645,0.22218873
32.561665,0.22468738
32.791526,0.22717611
33.216566,0.22966649
33.64395,0.23215321
33.979428,0.23466091
34.401245,0.2371561999999999
34.756735,0.23966995
35.222741,0.2421777199999999
35.670162,0.24469718
36.002999,0.24720199
36.172415,0.24969068
36.546318,0.25218174
36.809917,0.25467809
37.279914,0.25717258
37.801292,0.25966109
38.065623,0.2621790499999999
38.499048,0.26468502
38.900119,0.26719706
39.131446,0.26969381
39.532001,0.2722002
39.909524,0.27468053
40.221646,0.27716808
40.647102,0.27966398
41.009209,0.2821616999999999
41.344184,0.28465019
41.640569,0.28717333
41.910896,0.28967513
42.414366,0.29218884
42.932203,0.29468365
43.179542,0.29718082
43.468209,0.2996822
43.820456,0.30216371
44.149142,0.3046599499999999
44.331156,0.30716406
44.87623,0.30967315
45.20818,0.31217943
45.472549,0.31469525
45.903727,0.31719683
46.263394,0.31968842
46.430043,0.32218185
46.856619,0.32467447
47.28748,0.3271628
47.614743,0.32966061
47.988153,0.33217004
48.37664,0.3346792
48.534078,0.33718294
48.987531,0.33970533
49.301638,0.3421951099999999
49.730745,0.34469292
49.881435,0.3471834499999999
50.301001,0.34967415
50.750385,0.35216688
51.019627,0.35467729
51.383641,0.35717544
51.693961,0.35967878
52.12403,0.36219384
52.422184,0.36469227
52.783265,0.36719199
53.121208,0.3696931
53.650695,0.37217541
53.956978,0.37466875
54.565255,0.3771642
54.765179,0.37966357
55.318488,0.3821669199999999
55.586306,0.3846717
56.029552,0.38718441
56.482917,0.38968123
57.02369,0.392177
57.449405,0.39467475
57.868734,0.3971716
58.382643,0.39966527
58.665018,0.40217134
59.193151,0.404673
59.809711,0.40718167
60.173138,0.4096858499999999
60.600363,0.41220066
61.207175,0.41470702
61.619862,0.41719401
62.257078,0.41967571
62.419242,0.42217286
63.184603,0.42466663
63.508272,0.42716934
64.095355,0.42968038
64.426162,0.43218288
64.948143,0.43468606
65.383051,0.43718597
66.165654,0.43967971
66.365877,0.44217189
66.917162,0.44467542
67.622942,0.44716199
68.070886,0.44965574
68.741464,0.4521736799999999
69.292174,0.4546705
69.861944,0.4571838199999999
70.099178,0.4596878
70.712571,0.46218938
71.225957,0.46468523
71.724113,0.46717954
72.112431,0.46966669
72.902274,0.47215204
73.363164,0.4746534699999999
73.950663,0.4771729
74.680056,0.47966185
75.233579,0.48218727
75.842596,0.48468833
76.642435,0.48718815
77.364198,0.48968592
78.133121,0.49215229
78.622755,0.49466839
79.34313,0.49717532
79.99861,0.49967149
80.526314,0.50218348
81.287545,0.50469372
82.133584,0.5071998200000001
82.830935,0.5096998699999999
83.49752,0.51217878
84.171143,0.51467496
85.249048,0.5171695399999999
85.66735,0.51966448
86.560019,0.5221568
86.961626,0.52465691
87.847802,0.52717504
88.394198,0.5296872399999999
89.199302,0.5321845900000001
90.128971,0.53469086
90.647708,0.5371893799999999
91.456735,0.53965655
92.190499,0.5421633
92.701642,0.5446699
93.811848,0.54717436
94.669888,0.54966712
95.163638,0.55218345
95.992663,0.55468251
96.417943,0.5571902200000001
97.485906,0.5596703900000001
98.089117,0.56217118
99.142968,0.5646519799999999
99.638253,0.56714869
100.42498,0.56962872
101.12423,0.57216603
102.23287,0.57468319
102.75245,0.5771923800000001
103.57384,0.57968485
104.13074,0.58220316
104.83085,0.5846920600000001
105.55547,0.58717138
106.42532,0.5896560399999999
107.25536,0.59217489
107.976,0.59465815
108.78769,0.5971816200000001
109.3861,0.5996907100000001
110.38095,0.60221313
111.20804,0.60470936
111.65731,0.60719201
112.67706,0.60965875
113.51833,0.61216816
114.06739,0.6146291199999999
115.03422,0.6171528700000001
115.90003,0.61967054
116.45197,0.62216721
117.48654,0.62467757
118.34564,0.6271977999999999
118.92981,0.6296745699999999
119.63229,0.63217565
120.87398,0.63464858
121.2507,0.6371565299999999
122.04391,0.6396526100000001
122.98164,0.64218201
123.63629,0.64469506
124.51562,0.6471906
125.4082,0.64968304
125.9919,0.65219671
126.96753,0.65469389
127.70137,0.65718639
128.47542,0.6596752300000001
128.95725,0.66213955
130.02973,0.66468139
130.79616,0.66717204
131.78509,0.6697007
132.39461,0.67221354
133.20987,0.67470561
133.89427,0.6771969800000001
134.69889,0.6796806200000001
135.48068,0.68218678
136.07956,0.6846723899999999
137.13498,0.68716836
137.78193,0.6896842999999999
138.79727,0.69219285
139.35556,0.6946658299999999
140.13644,0.69717622
140.78991,0.69967812
141.63337,0.70215824
142.52931,0.70467083
143.2837,0.70715156
144.07615,0.70967185
144.75372,0.71213514
145.77084,0.71465585
146.47682,0.71718574
147.26404,0.71967474
147.94974,0.72219202
148.80797,0.72467916
149.84923,0.72716795
150.29837,0.7296723
151.03916,0.7322021599999999
152.06705,0.73467004
152.4797,0.73718816
153.52436,0.73968908
154.54696,0.74217977
155.10999,0.74467894
156.30846,0.7472001
156.59375,0.7497035400000001
157.63429,0.7521973000000001
158.09407,0.75465378
159.08932,0.75716355
159.72509,0.75964849
160.53437,0.7621465199999999
161.2951,0.76464376
162.24858,0.76717927
163.27097,0.7697006599999999
163.99018,0.7722091799999999
164.46333,0.77469707
165.1842,0.7771665799999999
165.96016,0.77967976
166.70487,0.78216313
167.68041,0.78466815
168.49008,0.78716163
169.08143,0.7897055
170.07459,0.79223539
170.9973,0.79470159
171.84197,0.7971974300000001
172.13176,0.79967561
172.87744,0.80214433
174.09277,0.8046591000000001
174.78898,0.8071536
175.64193,0.8096550100000001
176.55462,0.81219946
177.06757,0.81469083
177.93592,0.81719069
178.76093,0.81970929
179.71269,0.82219627
180.19705,0.8246549799999999
181.09239,0.82716601
181.99833,0.82965384
182.6868,0.83216089
183.60068,0.83468679
184.29277,0.8371788099999999
185.23253,0.8396847
185.92312,0.84217533
186.82019,0.84469916
187.55104,0.8471640600000001
188.36209,0.84968758
189.00902,0.85216598
190.02687,0.85467394
190.72081,0.85716297
191.69187,0.85966815
192.4635,0.86219837
193.27466,0.8647097100000001
194.09836,0.86716382
194.92615,0.86967792
195.71368,0.87218365
196.27992,0.87467983
197.38021,0.87716247
197.97963,0.8796702599999999
199.08939,0.88219617
199.91587,0.88469315
200.4227,0.8871709000000001
201.48594,0.88968599
202.49125,0.892189
202.98159,0.89466621
203.92666,0.8971599299999999
204.82492,0.89967404
205.51747,0.90215738
206.44775,0.90465635
207.27745,0.90717039
207.94844,0.90969375
208.79708,0.91218749
209.4685,0.91468923
210.51676,0.9171886
211.07985,0.91967337
212.12014,0.92217577
212.81305,0.92465231
213.40392,0.92715198
214.29455,0.92964311
215.36458,0.93216126
216.16778,0.93468094
216.80691,0.93717057
217.83318,0.93968169
218.72595,0.9421875
219.43431,0.94463579
220.3048,0.94717984
220.98508,0.94961895
221.8563,0.95215718
222.64957,0.95465851
223.48955,0.95715262
224.45333,0.95968124
224.9596,0.96219322
225.984,0.96467449
226.61885,0.9671665
227.51039,0.96965477
228.2245,0.97213452
229.02951,0.97464868
229.82973,0.97714284
230.69815,0.97968066
231.71145,0.98218785
232.70052,0.98470828
233.05961,0.98718601
234.14296,0.98968749
234.85144,0.99216814
235.69784,0.99466278
236.40353,0.99714932
237.25796,0.99966757
238.25875,1.0021736
239.19239,1.0046834
239.89875,1.0071923
240.61568,1.0097067
241.58974,1.0122011
242.16817,1.0146609
242.82255,1.0171417
243.71169,1.01965
244.3976,1.0221629
245.24077,1.0246625
246.16177,1.0271705
246.98142,1.0297077
247.90373,1.03222
248.4713,1.0346487
249.68083,1.0371719
250.13902,1.0396686000000002
250.81081,1.0421347
251.64305,1.0446428
252.84866,1.0471486
253.43239,1.0496812
254.21805,1.0521631
255.12249,1.0546831
255.91016,1.0571699
256.8324,1.0596695
257.64122,1.062183
258.42037,1.0646504
259.29447,1.0671822
260.15922,1.0696728999999998
260.74291,1.0721873
261.51955,1.0746858
262.38925,1.0771967999999998
263.43094,1.0796841
264.00176,1.0821912
264.6222,1.084691
265.7213,1.087191
266.41795,1.0896644000000002
266.89254,1.0921476
267.8899,1.0946714000000002
268.60329,1.0971836
269.61963,1.0996559
270.35165,1.1021943
271.13577,1.1046933
271.81998,1.1071856999999998
272.54864,1.1096838
273.35153,1.1121722
274.06107,1.1146642999999998
274.8955,1.1171667
275.87574,1.1196685
276.77597,1.1221637
277.60135,1.1246858000000002
278.21281,1.1271801
278.88498,1.1296932
279.94269,1.1321816
280.2695,1.1346808
281.21709,1.1371416
281.99307,1.1396348
282.79341,1.14217
283.34321,1.1446669
284.30974,1.1471754
284.93728,1.1496922
285.92762,1.1522025
286.68266,1.1546736
287.67894,1.1571705
288.07396,1.1596778
288.89555,1.1621305000000002
289.815,1.1646414
290.90464,1.1671846
291.30001,1.1697101
292.27287,1.1721865
292.93997,1.1746729
293.79494,1.1771644
294.59574,1.1796675
295.27967,1.1821543
296.01572,1.1846344
296.967,1.1871367
297.78671,1.1896278
298.6165,1.1921914
299.50513,1.194704
300.25791,1.1971725
301.08865,1.1997032
302.00966,1.2021989
302.73093,1.2046596
303.72062,1.2071678
304.1708,1.2096378
304.9086,1.2121794
305.83134,1.2146768
306.9219,1.2171735
307.62258,1.21968
308.56723,1.2221738
309.32174,1.2246708
310.26854,1.2271493
310.9485,1.2296612
311.73525,1.2321335
312.86219,1.2346546
313.74593,1.2371784
314.24973,1.2396763
315.15404,1.2421536
316.14657,1.2446795
316.90238,1.2471823
317.87288,1.2496849
318.6384,1.2522023999999998
319.5022,1.2546793
320.38431,1.2571666
321.29105,1.2596862
322.01478,1.2621789
322.725,1.2646817
323.52119,1.2671843
324.52479,1.2697174
325.42535,1.2721953
326.14996,1.2747043
326.93771,1.2771538999999998
327.65106,1.2796624
328.64152,1.282167
329.48381,1.2846449
330.44008,1.2871573
331.27119,1.2896645
332.02528,1.2921773
332.8673,1.2946905
333.52221,1.2971646
334.49005,1.2996593
335.23488,1.3021815
336.21331,1.3046737
337.02305,1.3071517
337.87208,1.3096654
338.89479,1.3121735
339.60869,1.314716
340.48361,1.3171822
341.34443,1.3197197
342.14658,1.322186
343.45735,1.3246562000000002
343.78657,1.3271265
344.85123,1.3296311
345.37117,1.3321637
346.24229,1.3346757
347.40916,1.3371778
347.84457,1.3396945
348.92974,1.3422022
349.71397,1.3446788
350.38895,1.3471921
351.34874,1.3496494
352.41686,1.3521838
353.44578,1.3546725000000002
353.93418,1.357168
355.02464,1.3596731999999998
355.94473,1.3621933
356.7718,1.3647219
357.3511,1.3671218
358.46531,1.3696637
359.01124,1.3721530000000002
359.92853,1.3746687
360.78421,1.3771531
361.69611,1.3796618
362.27491,1.382196
363.32751,1.384675
364.01467,1.3872126
364.50915,1.3896752
365.44263,1.3921654
366.12072,1.3946703
367.00089,1.397142
367.77959,1.3996878
368.39239,1.4021834
369.06089,1.4046623
369.657,1.4072013
370.47475,1.4097017
371.15069,1.4122029
371.69223,1.4146715
372.69096,1.4171882
373.07662,1.4196661
373.78409,1.422152
374.63562,1.4246695
375.33105,1.4271521
376.20351,1.4296638
376.91266,1.432163
377.539,1.434678
378.21428,1.4371744
378.72103,1.4396548
379.49031,1.4421648
380.43975,1.4446398
381.08881,1.4472042
381.67135,1.4496273000000002
382.31586,1.4521527
383.26843,1.4547036000000002
383.74482,1.4572112
384.41538,1.4597118
385.08791,1.4621976
386.09576,1.4647045
386.69082,1.4671653
387.27293,1.4696642
388.0707,1.4721525
388.71457,1.4746786
389.51118,1.4771358
389.98242,1.4796575
390.86928,1.4822132
391.35889,1.4846966
392.06221,1.4871969
392.74015,1.4896863
393.10568,1.4921587
393.74957,1.4946712
394.5163,1.4971521
395.60589,1.4997095
395.88103,1.5021721
396.61795,1.5047188
397.27697,1.5072028000000002
397.88337,1.5096992
398.37163,1.5121876
399.34529,1.5146538
399.78423,1.5171526
400.39678,1.5196469
401.22289,1.5221564
401.83165,1.524665
402.39567,1.5272303
403.19862,1.5296654
403.72193,1.5321831
404.40539,1.5346809
405.03197,1.5371368
405.63606,1.539655
406.40399,1.5421352000000002
406.69538,1.5446586
407.6658,1.5471828
408.21922,1.5496811
409.02293,1.5521907
409.32178,1.5547048
410.0816,1.5571682999999998
410.56176,1.5596838
411.41575,1.562119
411.94835,1.5647064
412.64544,1.5671498
413.25635,1.5697051
413.94674,1.5721839000000002
414.62208,1.5747013
415.33099,1.5771956
415.59165,1.5797035
416.60663,1.5822012
416.93727,1.5846762
417.52107,1.5871747
418.10982,1.5896884
418.95546,1.5921827
419.44183,1.5946745999999998
420.24619,1.5971764
420.65568,1.5996925
421.15499,1.6022014
422.0409,1.6046851
422.54175,1.6072145
423.31605,1.6096681
424.07541,1.6121726
424.43692,1.6146856
425.16823,1.6171746
425.73068,1.6196528
426.30518,1.6221775
426.89096,1.6247255
427.42227,1.6271839
427.98248,1.6297113
428.6747,1.6321858
429.27435,1.6346893
429.76194,1.6371754
430.34814,1.6396788
431.33825,1.6421867
431.69173,1.6447047
432.29249,1.6471812
432.61809,1.6496967
433.482,1.6522255
434.02033,1.6546777
434.62143,1.6571763000000002
435.24557,1.6596473
436.17204,1.6621651
436.32346,1.6646566
437.02924,1.6671342
437.6422,1.669707
438.15563,1.6721738
439.03774,1.6746936
439.55951,1.6771784
439.75411,1.6796581
440.7905,1.6821711
440.97797,1.6846401999999998
441.72001,1.6871652
442.09867,1.6896614
442.94418,1.6921989000000002
443.54207,1.6946816
444.078,1.6972014000000002
444.69376,1.6996623000000002
445.30767,1.7022000000000002
445.90239,1.7046648999999998
446.44067,1.7072117
446.81276,1.7096538
447.63459,1.7121532
448.14948,1.7146771
448.64451,1.7172289
449.28022,1.7196922
450.10008,1.7222264
450.66047,1.7246676
451.12905,1.727209
451.71853,1.7296715
452.41686,1.7321936
452.7622,1.734652
453.46383,1.7371931
453.9456,1.739689
454.50645,1.7421998
455.32801,1.7446533
455.96917,1.747252
456.46445,1.7496790999999998
456.94385,1.7522114
457.3981,1.7546489
458.2019,1.7571831
458.81198,1.7596689
459.4571,1.7622067
460.1101,1.764659
460.57873,1.7671744
460.8386,1.7696975
461.32487,1.7721481
462.15283,1.7747129
462.72997,1.7771519
463.38869,1.7796932
463.82027,1.7821761
464.29784,1.784685
465.06697,1.7871509
465.39987,1.789724
465.94377,1.7921655
466.55537,1.7946564
466.87741,1.7972081
467.51831,1.7996705
468.10467,1.8021687
468.82156,1.8046747
469.16704,1.8071689
469.9421,1.8096871
470.24548,1.8122304
470.8306,1.8147112
471.39778,1.8172144
471.94218,1.8196998
472.54951,1.822182
473.0297,1.8247004
473.70644,1.8271864
474.14738,1.829702
474.55314,1.8321401
475.17438,1.8346954
475.78335,1.8371871
476.23277,1.8397039
476.9641,1.8421981
477.49526,1.8446753
478.00282,1.8471832
478.4545,1.8496297
479.05819,1.8521474
479.61629,1.8546811
480.20112,1.8571924
480.74636,1.8597079
481.3309,1.8621935
481.78751,1.8647101
482.43557,1.8671954
482.94182,1.8696623
483.473,1.8721769
483.88017,1.874701
484.5104,1.8771601
485.22914,1.8796761
485.63505,1.8821927
486.16519,1.8847288
486.60406,1.8872156
487.41064,1.8896703
487.97445,1.8922037
488.34919,1.8946362
489.08955,1.8971798
489.65439,1.8996953
490.16387,1.9021499
490.80414,1.9046504
491.46652,1.907205
491.87263,1.9096971
492.41792,1.9121856
493.01315,1.9147266
493.40853,1.9171266
494.02877,1.9197024
494.54076,1.9221918
495.01623,1.924698
495.67604,1.9271439
496.14173,1.9296797
496.56186,1.9321957
497.22871,1.9346706
497.89209,1.9371995
498.13569,1.9397112
498.70836,1.9421949
499.43853,1.9447144
499.87454,1.9471567
500.35098,1.9496903
500.96939,1.9521434
501.35637,1.9546263
502.15692,1.9572083
502.66947,1.9597005
503.28485,1.9621682
503.80444,1.9647088
504.27217,1.9672057
504.7768,1.9696964
505.30952,1.9721592
505.96492,1.974639
506.28945,1.9771756
506.81113,1.9797029
507.21713,1.9821837
507.7853,1.9847010000000005
508.36475,1.9872048
508.68157,1.9897234
509.29863,1.9921765
509.80397,1.9946618
510.16716,1.9971514
510.69905,1.9996925
511.27849,2.0021761
511.75471,2.0046964
512.21194,2.0071637
512.95368,2.0097294000000003
513.14666,2.0122084
513.5323,2.0146933
513.85057,2.0171812
514.06745,2.0196629
514.41506,2.0221766
514.93259,2.0246793
515.47415,2.0271716
515.75923,2.0296741
516.22644,2.0322275
516.53402,2.0347053
516.81406,2.0371695
517.39465,2.0396591
517.70054,2.0421572
518.01587,2.0446639
518.42586,2.0471635
518.90037,2.0496816
519.52434,2.0521609
519.86792,2.0546679
520.10436,2.0571929
520.76137,2.0596935000000003
520.78131,2.0621744
521.10569,2.0646974
521.26401,2.0671598
521.94313,2.0696497
522.4505,2.0722065
522.84126,2.074662
523.16324,2.0771967
523.74798,2.0797187000000004
524.23354,2.0822353
524.87367,2.0846843
525.04473,2.0871634
525.68311,2.0896914
525.96537,2.092145
526.59637,2.0946606
527.09587,2.0971787
527.50553,2.0996737
527.99194,2.102246
528.57474,2.1046755
528.8337,2.1071819
529.26227,2.1096889
529.78267,2.112158
530.19245,2.1146628
530.49362,2.1171777
531.10962,2.1196605
531.48007,2.1221919
531.93384,2.1246607
532.40564,2.1272052
532.88301,2.1296805
533.22814,2.1322043
533.68044,2.13468
534.22861,2.1371386
534.72056,2.1396515
535.37803,2.1421823
535.70135,2.1446796
536.229,2.1471925
536.69935,2.1497079
537.01361,2.1522095
537.64688,2.1546532
538.03764,2.1571979
538.66544,2.1596703
539.05989,2.1621447000000003
539.51989,2.1646536000000003
539.9196,2.1671811
540.55629,2.1696819
540.89023,2.1722132000000003
541.44335,2.1747119
541.7171,2.1771782
542.26283,2.179694
542.60022,2.1821889000000003
543.10559,2.1847173
543.48331,2.1871831
544.00661,2.1896825
544.69945,2.1922151
544.99374,2.1947596
545.53147,2.1971378
546.12627,2.1996924
546.59366,2.2021623
547.12333,2.2046533
547.67242,2.2071653
548.23971,2.2096543
548.60262,2.2121935
549.0018,2.2146751
549.48012,2.2172058000000003
550.00973,2.2196677
550.49142,2.2222024
551.25005,2.2246954000000003
551.41216,2.2271745
551.67116,2.2296306
552.16937,2.2321522
552.49212,2.2346658
553.09326,2.2371196
553.73772,2.2396927
554.15896,2.2421644
554.70164,2.2446556
555.25755,2.2472253
555.59603,2.2496944
556.06417,2.2522186
556.77055,2.2546433
556.94112,2.2571779
557.69894,2.2596946
558.12403,2.262189
558.75032,2.2646746
559.21677,2.2671952
559.7874,2.2696824
560.45611,2.2721873
560.83973,2.2746787
561.29015,2.2771524
561.88522,2.2796633
562.12147,2.2821643
562.81099,2.2846683
563.36058,2.2871905
563.93346,2.2897069
564.43422,2.2921941
564.81461,2.2946883
565.329,2.2971929
565.77305,2.2996506
566.24561,2.3021729000000004
566.9401,2.3046411
567.40479,2.3071523
567.95743,2.309715
568.44141,2.3121827
568.90829,2.3146901
569.42579,2.317206
569.81855,2.3196851
570.26165,2.3221723
570.75664,2.3246969
571.31204,2.3271907
571.73182,2.3296323
572.2179,2.3321886
572.64445,2.3346869000000003
573.12318,2.3371907000000003
573.58828,2.3396905
573.87924,2.3422185
574.4026,2.3447116
