Force(N),Elongation(mm)
0.72834444,1.1771917e-06
1.1430656,0.0021871625999999
1.4529223,0.0046683848
1.6180464,0.0071715265999999
2.0762117,0.0096780956
2.1859231,0.012194678
2.4418932,0.014694989
2.8396443,0.017206714
3.1444543,0.019685358
3.429785,0.022185728
3.8495247,0.024667189
4.0062609,0.027153909
4.3466637,0.029650897
4.7772008,0.032157421
4.88699,0.034665823
5.2738447,0.037185594
5.5644302,0.039694399
5.8739604,0.0421910879999999
6.0540736,0.044684455
6.3881808,0.047178105
6.6194042,0.049664959
6.9153478,0.052160591
7.2102807,0.054685131
7.6080897,0.057171747
7.7917639,0.059694275
8.1721892,0.062213764
8.3585966,0.06470342
8.5023689,0.067193195
8.8002968,0.069674775
9.0926228,0.072173342
9.3726847,0.07465817
9.5904146,0.077172101
9.9487317,0.079672456
10.012824,0.082185552
10.237904,0.084674969
10.516797,0.087197751
10.776128,0.0896947229999999
11.219695,0.092179939
11.431761,0.0946962089999999
11.52889,0.0971738249999999
11.829124,0.099683061
12.012508,0.10217644
12.47049,0.10467805
12.516972,0.10718827
12.951953,0.10969405
13.140294,0.11219512
13.420104,0.11469823
13.74407,0.11719504
13.895549,0.11966728
14.227602,0.12216662
14.697084,0.1246698499999999
15.054308,0.12717073
15.158028,0.12967427
15.446763,0.13218032
16.026277,0.134699
16.366354,0.137201
16.655753,0.1396871499999999
17.117531,0.14217868
17.23759,0.14468005
17.879193,0.14715946
18.042086,0.14967544
18.4649,0.1521752599999999
18.747815,0.15468994
19.197525,0.15720132
19.65409,0.15970117
19.853104,0.16220278
20.246283,0.16469383
20.61751,0.1671750799999999
20.770498,0.16967474
21.300731,0.1721577
21.494239,0.17467032
22.082693,0.17718834
22.477878,0.17968777
22.782571,0.18218789
22.998396,0.18469238
23.482933,0.18719965
23.865283,0.18968573
24.104691,0.1921695199999999
24.327041,0.19466613
24.804422,0.19715862
25.112898,0.19967109
25.559069,0.20218347
25.830978,0.20468654
26.237552,0.207193
26.467992,0.20970023
26.950786,0.21217741
27.070504,0.21466555
27.359234,0.21715882
27.593511,0.21965989
28.142214,0.2221587
28.425436,0.22467531
28.729438,0.2271867799999999
29.060868,0.22969426
29.200352,0.2321853499999999
29.792191,0.23468381
30.000174,0.23717538
30.349409,0.23969513
30.550192,0.24217416
30.911166,0.2446745899999999
31.254191,0.24718279
31.586522,0.24967936
32.047361,0.25219016
32.343197,0.25469626
32.627042,0.25718905
32.894815,0.25969239
33.240436,0.26217614
33.652047,0.26466352
33.972204,0.26716015
34.138555,0.26966408
34.63263,0.27217075
34.836596,0.27468327
35.194458,0.27718343
35.34414,0.2796930099999999
35.610106,0.28218549
35.99186,0.28468159
36.082459,0.28716859
36.623294,0.2896705
36.975739,0.29216903
37.243386,0.29467918
37.596847,0.29717602
38.055117,0.29968099
38.309263,0.30218771
38.632784,0.30469203
39.084262,0.30717684
39.549016,0.30968814
39.635281,0.31216082
39.998339,0.31465897
40.397575,0.31715445
40.944684,0.31965849
41.131533,0.32218176
41.386563,0.32469797
41.686269,0.32720505
41.887448,0.32967959
42.413529,0.3321866699999999
42.672429,0.33466843
43.042436,0.3371746799999999
43.462447,0.33967488
43.823788,0.34217072
44.102423,0.34468296
44.571528,0.34720241
45.087486,0.3496909099999999
45.417241,0.35218874
45.816006,0.35469511
46.438692,0.3571731
46.683794,0.35966499
47.324513,0.36214159
47.697988,0.36466724
48.064395,0.36716688
48.627178,0.36968274
48.926011,0.3721894599999999
49.511576,0.37469779
49.762574,0.37717488
50.48432,0.37967999
50.755384,0.38217309
51.267109,0.3846647099999999
51.700763,0.3871733
52.193424,0.38966444
52.693258,0.39218572
53.096426,0.39469445
53.695506,0.39719905
54.078412,0.39969844
54.661314,0.40219942
55.087491,0.40467843
55.704943,0.40716867
56.237861,0.40966213
56.753232,0.41216521
57.187237,0.41466528
57.934557,0.41717698
58.307173,0.41969569
59.060168,0.42218116
59.52971,0.42470108
60.044327,0.4271694
60.65647,0.42968446
61.169276,0.4321833399999999
61.597838,0.43467477
62.008584,0.43719003
62.813071,0.43967064
63.319035,0.44218586
63.861867,0.44469847
64.454606,0.4472079
65.040309,0.4496901
65.601019,0.45217207
66.299401,0.45466222
66.997401,0.45716171
67.446085,0.4596657
68.116652,0.46216324
68.83478,0.46467219
69.488271,0.46718888
70.109167,0.46968539
70.932144,0.47219101
71.346242,0.47469212
71.951596,0.4771513799999999
72.678143,0.4796688
73.293258,0.48218219
73.946763,0.48467505
74.711397,0.48720309
75.341503,0.48970261
76.062152,0.49218878
76.744661,0.49469882
77.404704,0.49717465
78.089728,0.4996935399999999
78.806336,0.50216863
79.45653,0.50466645
80.322619,0.50716792
81.145289,0.50968233
81.832835,0.51220496
82.37879,0.5146919600000001
83.121406,0.51719894
83.853398,0.5196939700000001
84.617237,0.52218264
85.412935,0.52465193
86.009481,0.52715042
86.81549,0.5296650500000001
87.596065,0.5321650099999999
88.424695,0.53468764
89.219184,0.53718373
89.83126,0.5397017700000001
90.677541,0.5421950400000001
91.361523,0.54467502
92.174029,0.54718016
92.969727,0.5496672100000001
93.667369,0.55215715
94.353107,0.55465075
95.257791,0.55717047
95.889815,0.5596885100000001
96.624693,0.56220025
97.499128,0.56469265
98.270702,0.5671964700000001
99.150237,0.56967483
99.748343,0.57217081
100.62461,0.5746719400000001
101.42722,0.57717559
101.93178,0.57968062
102.82838,0.58218364
103.44089,0.5847000600000001
104.23169,0.58719347
105.01321,0.58969003
105.99576,0.59217729
106.7464,0.59468167
107.43576,0.59716684
108.17307,0.59965664
109.09754,0.60216863
109.97827,0.6046788399999999
110.66276,0.60716991
111.2974,0.6096952
112.22627,0.61220303
112.96221,0.61468586
113.91236,0.61719054
114.67561,0.61967175
115.45709,0.62219086
116.062,0.6246650699999999
117.00875,0.62716845
117.91501,0.6296736900000001
118.63774,0.63217977
119.42683,0.63473366
120.33333,0.6371898100000001
121.15832,0.63968454
121.90165,0.64216514
122.86472,0.64467216
123.59433,0.64716028
124.38099,0.6496691099999999
125.09358,0.6521653700000001
125.88955,0.65467179
126.88478,0.65717775
127.58641,0.65969184
128.63753,0.66220124
129.31157,0.66467027
130.11768,0.66718499
131.16592,0.66968349
131.72349,0.67218681
132.63796,0.67468686
133.649,0.6772062
134.23354,0.6796877800000001
135.32138,0.6821834
135.97214,0.68469119
136.94505,0.68718053
137.62936,0.68967867
138.7067,0.69216311
139.44333,0.69465019
140.46413,0.69717626
141.30904,0.6996723699999999
142.03753,0.70218596
143.1016,0.70471038
143.81381,0.70720814
144.76785,0.7097019999999999
145.83724,0.7121854400000001
146.53012,0.71468517
147.41958,0.71716981
148.32934,0.7196745600000001
149.2112,0.72215815
149.89956,0.72467531
150.88746,0.72718234
151.81869,0.72969759
152.74056,0.73219885
153.85156,0.7346967799999999
154.60215,0.7371712600000001
155.43282,0.73966371
156.34653,0.7421629900000001
157.45279,0.74467611
158.32456,0.74717273
159.22355,0.74968667
160.17625,0.75218083
161.28453,0.75468807
162.07227,0.7571802000000001
162.94491,0.7596852199999999
164.02542,0.7621891300000001
165.15549,0.76467086
166.0246,0.7671723500000001
167.17277,0.76967189
167.94436,0.7721877699999999
168.92129,0.77469642
169.86953,0.77719203
170.69357,0.77968936
171.68509,0.78220098
172.62724,0.78468348
173.71691,0.78717321
174.58403,0.7896599000000001
175.4683,0.79216424
176.44697,0.79466142
177.48172,0.79716952
178.42654,0.79966237
179.24971,0.8021885799999999
180.48173,0.80468301
181.40722,0.8071795900000001
182.28365,0.80966175
183.40932,0.81215656
184.21591,0.8146577899999999
185.28212,0.8171385400000001
186.2835,0.81967561
187.11903,0.82218869
188.28434,0.82470205
189.37863,0.82719889
190.10745,0.82968286
191.07188,0.8321794299999999
192.13664,0.83467469
193.05901,0.8371773800000001
194.07817,0.83967352
194.99318,0.8421641099999999
195.79557,0.8446741600000001
196.97223,0.8471584
197.93102,0.8496786199999999
198.9279,0.85217649
199.88491,0.85465588
200.71806,0.85714091
201.85924,0.85963254
202.76651,0.8621401200000001
203.87275,0.86464751
204.88526,0.86715131
205.68236,0.86966273
206.79786,0.87218814
207.57306,0.87470102
208.61195,0.87720203
209.47645,0.87967536
210.48457,0.88214482
211.51085,0.88463466
212.48615,0.88714302
213.56515,0.88965407
214.30277,0.89217731
215.00929,0.8946792499999999
216.15203,0.8971835199999999
216.78573,0.89969043
218.03666,0.9021749
218.96455,0.904662
219.49485,0.90715547
220.79973,0.90967095
221.74138,0.91218714
222.8269,0.91467483
223.88823,0.91719402
224.72013,0.91970541
225.52569,0.92218165
226.56283,0.92468274
227.48062,0.92717206
228.6632,0.92964853
229.78343,0.93216227
230.36439,0.93466489
231.39715,0.93715505
232.2604,0.93967079
233.39162,0.94215582
234.37719,0.94468334
235.48901,0.94717214
236.18421,0.94967346
237.2407,0.95215033
238.27105,0.9546539
239.01042,0.95718601
240.19796,0.95967092
241.18239,0.96215639
241.89384,0.96464491
242.97818,0.96721423
244.09422,0.9696684
244.99075,0.97216466
245.84607,0.97468828
247.06058,0.97716868
248.04938,0.97964585
249.13861,0.9821787
250.10953,0.98465481
250.97114,0.98718865
251.84517,0.98965409
253.09044,0.99220608
253.98306,0.9946886
254.9444,0.99718322
256.02901,0.99966246
256.7504,1.0021793
257.80206,1.0046712
258.6968,1.0071342
259.68171,1.0096793
260.80737,1.0121958
261.7022,1.0147006
262.70648,1.0171933000000002
263.61842,1.0196827000000002
264.71765,1.0222194999999998
265.63438,1.0246489
266.74916,1.0271802
267.55418,1.0296396
268.59465,1.032151
269.68279,1.0346546
270.57578,1.0371832
271.67268,1.0396737
272.62459,1.0421926
273.83769,1.0446961
274.60296,1.047179
275.65561,1.0496907
276.51405,1.0521345999999998
277.62406,1.0546756
278.51697,1.057168
279.55033,1.0596917
280.62406,1.0621877
281.45581,1.0647027999999998
282.37793,1.0671611
283.58968,1.0696794
284.50642,1.0721823
285.55117,1.0746532
286.77826,1.0771426000000002
287.38122,1.0796514
288.61649,1.0821433
289.82128,1.084697
290.85658,1.0872097
291.65026,1.0896458
292.51557,1.0921845
293.60714,1.0946829
294.58406,1.0971424
295.54696,1.0996624000000002
296.61715,1.1021708
297.65546,1.1046821999999998
298.91435,1.1072007
299.67363,1.1096891999999998
300.55862,1.1121754
301.85278,1.1147063
302.46929,1.1171864
303.48905,1.1196533
304.69997,1.1221956000000002
305.41891,1.1246666
306.25679,1.1271948
307.25767,1.1296814
308.15092,1.1321898
309.00979,1.1346676
309.68443,1.1371901
310.4582,1.1397021
311.10812,1.1421794
311.73301,1.1446729999999998
312.57436,1.1471661
313.36146,1.1496517
314.14118,1.1521842
314.98966,1.1546888
316.00637,1.157199
316.72095,1.1596785
317.69532,1.162167
318.54913,1.1646644000000002
319.41119,1.1671705
320.31762,1.1696108
321.24101,1.1721155
322.11015,1.1746451
323.08473,1.1771816
323.76442,1.1796878000000002
324.67854,1.1822212
325.43999,1.1846999
326.54479,1.187167
327.07321,1.1896818
327.9037,1.1921450999999998
328.87981,1.1946713999999998
329.65388,1.1971523
330.54831,1.1997038
331.37119,1.2021878
332.12228,1.2046663
332.99478,1.2071872
333.98604,1.2097232
334.71916,1.2121896
335.43943,1.2146643
336.30858,1.2171663
337.24191,1.2196520000000002
338.13008,1.2221849
338.82359,1.2246778
339.64612,1.2271888
340.54489,1.2296906
341.43381,1.2321958
342.2677,1.234655
343.19189,1.2371827000000002
344.02483,1.2396677
344.79837,1.2421933
345.68126,1.2446959
346.42451,1.2471949
347.14887,1.249694
348.20855,1.2522027
349.06135,1.2547077
349.7827,1.2571865
350.74864,1.2596397
351.3603,1.2621595
352.26963,1.2646368
353.06684,1.2671389
354.1087,1.2696752999999998
354.83858,1.2721853
355.62119,1.2746783
356.52975,1.2771899
357.35656,1.2796856
358.12677,1.2821776
358.9054,1.2846907
359.64586,1.2871494
360.49638,1.2896701
361.34471,1.2921432
362.12807,1.294677
362.99701,1.2971815
363.77144,1.2996879
364.66543,1.3021482
365.42834,1.3046962
366.30825,1.3071602
366.98534,1.3096833
367.84906,1.3121803
368.70384,1.3146725
369.45574,1.3171931
370.34281,1.3196779
371.0846,1.3221789
371.87662,1.3246911
372.68205,1.3271941
373.49267,1.3296971
374.35543,1.3321893
375.0716,1.3346783
376.00959,1.3371526
376.78985,1.3396828
377.53723,1.3421793000000002
378.40048,1.3446693
379.42084,1.3472072000000002
379.96939,1.3496983
380.89423,1.3522175
381.62744,1.3546893
382.47874,1.357201
383.18765,1.3596598999999998
383.97975,1.3621533
384.86614,1.3646783999999998
385.54449,1.3671677000000002
386.34973,1.3697012
387.28496,1.3722092
388.04243,1.374742
388.9382,1.377187
389.97737,1.3796954
390.5705,1.3821788
391.1937,1.3846727
392.17538,1.3871694
392.90735,1.389671
393.79194,1.3921849
394.7311,1.3947087
395.6516,1.3972293
396.44642,1.3996759
397.22258,1.4022032
398.12017,1.40466
398.97904,1.4071579
399.62421,1.4096752
400.55781,1.4121637
401.41625,1.4146927
402.10299,1.4171736
403.0233,1.4197076999999998
403.81458,1.4221970000000002
404.77333,1.4246785
405.40436,1.4271683
406.23238,1.4296671
407.0998,1.4321402
408.16861,1.4346929000000002
408.95808,1.437197
409.76383,1.4396987
410.75393,1.4422122000000002
411.5823,1.4446926
412.46933,1.4472161
413.19397,1.4496856
414.16052,1.4521701
415.06464,1.454658
415.73269,1.4571647
416.88102,1.4596659
417.59845,1.4621912
418.55564,1.4646819000000002
419.2736,1.4671706
420.21425,1.4696918
420.92153,1.4721866
421.76252,1.4746452
422.42233,1.4771721
423.14222,1.4797063
424.13244,1.4821737
425.04715,1.4846668
425.63282,1.4871927
426.64519,1.4897048
427.26761,1.4921782
428.29089,1.4947071
429.22659,1.4972085
429.76061,1.4996664
430.65971,1.5021711000000002
431.38657,1.5046734
432.78551,1.5071847
433.3393,1.5096778
434.34231,1.5121796
435.1431,1.5147329
435.9797,1.517191
436.75312,1.5196878
437.59112,1.5221861
438.62446,1.5246628
439.31964,1.5271671
440.35807,1.5296607
441.05428,1.5321941
441.79649,1.5346603
442.71007,1.5372322
443.4891,1.5396876000000002
444.32116,1.5422321
445.06981,1.5447211
445.85493,1.5472177
446.84163,1.5496574
447.55685,1.5522208
448.39396,1.5546718
449.0859,1.5571676
450.01563,1.5596903
450.62766,1.5622077
451.52136,1.5646679
452.38784,1.5671843
453.24783,1.5696719
454.15094,1.5721656
454.90207,1.5746816
455.76755,1.5771625
456.53574,1.5796796
457.49813,1.5821879
458.20515,1.584688
459.05487,1.5871874
459.96628,1.589695
460.80194,1.5921718
461.53406,1.5946832
462.30833,1.5971654
462.97008,1.5996622
464.08859,1.6021651
464.77919,1.6046549
465.53865,1.6072117
466.13364,1.6096758
467.19771,1.6122257
467.85152,1.6146639
468.65908,1.6171642
469.59601,1.6197262
470.55428,1.6221538
471.05216,1.6246585
472.02083,1.6271712
472.79002,1.6297047
473.52085,1.6321698
474.47636,1.6347128
475.12508,1.6371935
475.9439,1.6396689
476.68406,1.6422006999999998
477.6194,1.6446909
478.04025,1.6471630000000002
478.81041,1.6496691
479.83935,1.6521791
480.54476,1.6546702
481.06778,1.6571718000000002
481.68901,1.6597046
482.34325,1.6621695
482.88183,1.6646955
483.33875,1.6672065
483.99461,1.6697109
484.23704,1.6721856000000002
484.73892,1.6746737
485.25694,1.6772202
485.86348,1.6797459
486.35894,1.6822
486.81701,1.684705
487.7012,1.6871831
488.31729,1.6897129
488.79633,1.6921689
489.75185,1.6946462
490.44867,1.6971881
491.18238,1.6996663
491.95637,1.7022039999999998
492.95875,1.7047572
493.35685,1.7072242999999998
494.04213,1.709705
494.778,1.7121949
495.20009,1.7146665
496.01696,1.7171454
496.67866,1.719679
497.50604,1.7221482
498.15515,1.7246737
498.77064,1.7271628
499.32595,1.7297112
500.08515,1.7321772
500.78987,1.7346865
501.40557,1.7372092
501.95144,1.7396657
502.73162,1.7421651
503.31279,1.7446624
503.90678,1.7471816
504.56756,1.7497079
505.30433,1.7522174
505.74451,1.7546831
506.4204,1.75718
507.11877,1.7596866
507.80234,1.7621525
508.58314,1.7646959
509.217,1.7671473
509.73949,1.7696626
510.56886,1.7722203
510.88455,1.7747149
511.63827,1.7771852
511.97847,1.7797123
512.60716,1.7822133
513.32237,1.7846733
513.99374,1.7871724
514.46315,1.7896382
515.09227,1.792145
515.90363,1.7946635
516.25389,1.7971632
517.03791,1.7996725
517.67563,1.8021487
518.29287,1.8046862
519.03276,1.8071823
519.7958,1.809709
520.15461,1.8121772
520.87439,1.8146887
521.33109,1.817185
522.12278,1.8196694
522.7169,1.8221978
523.1913,1.8247194
523.83631,1.8272096
524.53372,1.8297072
525.22681,1.8321965
525.86101,1.8346812
526.42564,1.8371927
526.8681,1.8396515
527.72215,1.8421597
528.54027,1.8447176
529.20031,1.8472199
529.74921,1.8497182
530.3493,1.8521829
531.03246,1.8547281
531.56588,1.8571414
532.34418,1.8596879
532.92984,1.8621613
533.55058,1.8646469
534.12596,1.8672072
534.78003,1.8696629
535.51176,1.872228
536.08198,1.8746904
536.71159,1.8771675
537.43705,1.879688
537.89154,1.8821603
538.60883,1.8846551
539.41689,1.887165
539.95689,1.8896448
540.58835,1.8922232
541.23881,1.8946936
541.71299,1.8971714
542.38732,1.8996869
542.97106,1.9022211
543.53223,1.9046667
544.22474,1.9071445
544.64102,1.9096844
545.26269,1.9122149
545.92277,1.9146756
546.56082,1.9171756
547.30279,1.9196897
547.8644,1.9222368
548.53221,1.9246913
549.3294,1.9272138
549.8779,1.9296295
550.38603,1.93221
551.17963,1.9346696
551.58431,1.9371658
552.37593,1.9396789
552.85351,1.9421695
553.36097,1.9446538
553.9597,1.9472319
554.41439,1.9496907
555.02782,1.9521896
555.80122,1.954684
556.09853,1.9571279
557.12031,1.9596763
557.63763,1.9621723
558.26292,1.9646664
558.95168,1.9672313
559.38167,1.9696705
559.8991,1.9721942
560.64844,1.9746481
561.29676,1.9771938
562.06158,1.9796645
562.63935,1.9821766000000005
563.19208,1.9846743
563.90347,1.9871615
564.50925,1.9896978
565.17843,1.9922099
565.82463,1.9947395
566.30764,1.9971941
566.87121,1.9996651
567.63662,2.0022055
568.24749,2.0046563
568.92007,2.0071894
569.39014,2.0096325
570.13139,2.0121984
570.89838,2.0146912
571.412,2.0171881000000003
571.97663,2.0196759
572.60748,2.0222158
573.11246,2.0247
573.95186,2.0271482
574.19583,2.0296434
574.9934,2.0322077000000003
575.44417,2.034635
576.22791,2.0372219
576.67287,2.0397066
577.19872,2.0421508
577.6079,2.0447019
578.27832,2.0471856
578.76463,2.0496937
579.34409,2.0521318
579.9018,2.054674
580.62801,2.0572215
581.03395,2.0596806
581.85309,2.0622259
582.30762,2.0647025
582.83164,2.0671638000000003
583.56919,2.0696718
584.32111,2.0721847
585.11791,2.0746498
585.68256,2.0771954
586.52661,2.0796615000000003
587.16471,2.0821716
588.00186,2.0846924
588.67266,2.0872036
589.42156,2.0896754
590.2521,2.0922037
591.01935,2.0947036
591.71786,2.0971986
592.40089,2.0996219000000003
592.98918,2.1022002
593.91896,2.1046901
594.60296,2.107191
595.33195,2.1096734
596.26369,2.1122203
596.97734,2.114731
597.49503,2.1171623
598.19202,2.1196591
598.89297,2.1221698
599.70399,2.1246837
600.38459,2.1271251
601.30533,2.1296864
601.95293,2.1322004
602.80456,2.1347048
603.52065,2.137208
604.03433,2.1397052
604.87812,2.1421826
605.61355,2.1446982
606.30838,2.1471521
607.05938,2.1496554
607.69247,2.1521479
608.63759,2.1547197
609.35391,2.1571762
610.06183,2.1596773
610.97934,2.162278
611.78005,2.1646708
612.32583,2.1671768
613.13705,2.1696582
613.93462,2.1721510000000004
614.76285,2.1746816
615.59494,2.1771276
616.12418,2.179668
616.91989,2.1821878000000003
617.58215,2.1847143
618.26406,2.1871722
618.9975,2.1896803
619.89633,2.1921859
620.49714,2.194653
621.38938,2.1971556
622.11985,2.1997062
622.75672,2.2021635
623.64546,2.2046855
624.58813,2.2072086000000004
625.29911,2.2096587
626.0975,2.2121874000000004
626.87117,2.2146665
627.48875,2.2171516
628.36561,2.2196894
628.94343,2.2221183
629.99582,2.2246555
630.82355,2.2272235
631.52003,2.2297232
632.27594,2.2322194
633.18419,2.2347071
633.93458,2.237185
634.45291,2.2396867
635.17734,2.24212
636.0064,2.2446858
636.9018,2.2471796
637.76531,2.2496644
638.35662,2.2521714
639.28653,2.2547228
639.99816,2.2571855
640.74144,2.2596623
641.5621,2.2621653
642.23669,2.2646593
643.10604,2.2671868
643.68509,2.2696537
644.60203,2.2721856
645.19235,2.2746777
646.13321,2.2771606
646.85437,2.2797268
647.55696,2.2821557
648.32043,2.2846661
649.04692,2.287147
649.55544,2.2896836
650.4929,2.2921634
651.07954,2.2946578
651.99192,2.2971933
652.56801,2.2996917000000003
653.3816,2.3021978
653.98805,2.3046356
654.86734,2.3072077
655.56734,2.3096346
656.34783,2.3121834
657.13504,2.3146673
657.89026,2.3171965
658.61908,2.3196686000000004
659.31631,2.3221518
659.98749,2.324691
660.84277,2.3271839
661.64776,2.3297302
662.30323,2.3321793
662.8981,2.3346912
663.68587,2.3371805
664.48676,2.3396522
